# time  <Ree(t).Ree(0)>  Cee_normalized  counts
0.000000000000000000e+00 7.040149149396914829e+00 1.000000000000000000e+00 1.281280000000000000e+05
2.000000000000000000e+00 6.098672541079197096e+00 8.662703604229226029e-01 1.280000000000000000e+05
4.000000000000000000e+00 5.436921993620642546e+00 7.722736945262571595e-01 1.278720000000000000e+05
6.000000000000000000e+00 4.903448966636342554e+00 6.964978813064478524e-01 1.277440000000000000e+05
8.000000000000000000e+00 4.451154186177705974e+00 6.322528247230398968e-01 1.276160000000000000e+05
1.000000000000000000e+01 4.054189460594238348e+00 5.758669844290920103e-01 1.274880000000000000e+05
1.200000000000000000e+01 3.696460148329546502e+00 5.250542381827519867e-01 1.273600000000000000e+05
1.400000000000000000e+01 3.370131311929514428e+00 4.787016923097733301e-01 1.272320000000000000e+05
1.600000000000000000e+01 3.077590545850584558e+00 4.371484865649788443e-01 1.271040000000000000e+05
1.800000000000000000e+01 2.810562376061637391e+00 3.992191523815089016e-01 1.269760000000000000e+05
2.000000000000000000e+01 2.564743293019184467e+00 3.643024087407139566e-01 1.268480000000000000e+05
2.200000000000000000e+01 2.343472838890571008e+00 3.328726123780093027e-01 1.267200000000000000e+05
2.400000000000000000e+01 2.142561448972152949e+00 3.043346672784187912e-01 1.265920000000000000e+05
2.600000000000000000e+01 1.958664662787690247e+00 2.782135180979051770e-01 1.264640000000000000e+05
2.800000000000000000e+01 1.793908212826069493e+00 2.548111090771055798e-01 1.263360000000000000e+05
3.000000000000000000e+01 1.638265426264231772e+00 2.327032270906606581e-01 1.262080000000000000e+05
3.200000000000000000e+01 1.498856105602592637e+00 2.129011862953202050e-01 1.260800000000000000e+05
3.400000000000000000e+01 1.369213741416690944e+00 1.944864678802980806e-01 1.259520000000000000e+05
3.600000000000000000e+01 1.251427665148229451e+00 1.777558455924802827e-01 1.258240000000000000e+05
3.800000000000000000e+01 1.139454940745211919e+00 1.618509660186420729e-01 1.256960000000000000e+05
4.000000000000000000e+01 1.039265493210779656e+00 1.476198119040996459e-01 1.255680000000000000e+05
4.200000000000000000e+01 9.466819953207609162e-01 1.344690254753845848e-01 1.254400000000000000e+05
4.400000000000000000e+01 8.620097226482955621e-01 1.224419688213762430e-01 1.253120000000000000e+05
4.600000000000000000e+01 7.864921510836362373e-01 1.117152682981169542e-01 1.251840000000000000e+05
4.800000000000000000e+01 7.173462167702457926e-01 1.018936107101788141e-01 1.250560000000000000e+05
5.000000000000000000e+01 6.510154743085866391e-01 9.247182985666646537e-02 1.249280000000000000e+05
5.200000000000000000e+01 5.946264787257959927e-01 8.446219903973681276e-02 1.248000000000000000e+05
5.400000000000000000e+01 5.430466496161019396e-01 7.713567398818835241e-02 1.246720000000000000e+05
5.600000000000000000e+01 4.977543145558726012e-01 7.070223996582687687e-02 1.245440000000000000e+05
5.800000000000000000e+01 4.585759369895069382e-01 6.513724741595712520e-02 1.244160000000000000e+05
6.000000000000000000e+01 4.220460436104389035e-01 5.994845203621757684e-02 1.242880000000000000e+05
6.200000000000000000e+01 3.883479349109981160e-01 5.516189027675151568e-02 1.241600000000000000e+05
6.400000000000000000e+01 3.565245052699534400e-01 5.064161251477103387e-02 1.240320000000000000e+05
6.600000000000000000e+01 3.250474042362601623e-01 4.617052811503360304e-02 1.239040000000000000e+05
6.800000000000000000e+01 3.022958364035998602e-01 4.293883978715076766e-02 1.237760000000000000e+05
7.000000000000000000e+01 2.847054333080906163e-01 4.044025591879392423e-02 1.236480000000000000e+05
7.200000000000000000e+01 2.648704866363685295e-01 3.762285159243512755e-02 1.235200000000000000e+05
7.400000000000000000e+01 2.477659485339019918e-01 3.519328117574420378e-02 1.233920000000000000e+05
7.600000000000000000e+01 2.341589221067351401e-01 3.326050586965107608e-02 1.232640000000000000e+05
7.800000000000000000e+01 2.184174408563608893e-01 3.102454738122576924e-02 1.231360000000000000e+05
8.000000000000000000e+01 2.012163804838363879e-01 2.858126670527616833e-02 1.230080000000000000e+05
8.200000000000000000e+01 1.871128893682980354e-01 2.657797234087388993e-02 1.228800000000000000e+05
8.400000000000000000e+01 1.738791861966487717e-01 2.469822478285760639e-02 1.227520000000000000e+05
8.600000000000000000e+01 1.601239203010603185e-01 2.274439318018953160e-02 1.226240000000000000e+05
8.800000000000000000e+01 1.440751113607649236e-01 2.046478111519937568e-02 1.224960000000000000e+05
9.000000000000000000e+01 1.325916792402653810e-01 1.883364633711256952e-02 1.223680000000000000e+05
9.200000000000000000e+01 1.225128346139574831e-01 1.740202260124736056e-02 1.222400000000000000e+05
9.400000000000000000e+01 1.110335951895650708e-01 1.577148336396774070e-02 1.221120000000000000e+05
9.600000000000000000e+01 9.971898563089159895e-02 1.416432855537355998e-02 1.219840000000000000e+05
9.800000000000000000e+01 8.897098189326320405e-02 1.263765582308505261e-02 1.218560000000000000e+05
1.000000000000000000e+02 8.090810807428878981e-02 1.149238551021602647e-02 1.217280000000000000e+05
1.020000000000000000e+02 7.354211941976865341e-02 1.044610247015413662e-02 1.216000000000000000e+05
1.040000000000000000e+02 6.871875398596144491e-02 9.760979849673803027e-03 1.214720000000000000e+05
1.060000000000000000e+02 6.371828206744933887e-02 9.050700591038995588e-03 1.213440000000000000e+05
1.080000000000000000e+02 6.285770750553680564e-02 8.928462475957832031e-03 1.212160000000000000e+05
1.100000000000000000e+02 5.781621147387058096e-02 8.212356051977013488e-03 1.210880000000000000e+05
1.120000000000000000e+02 5.367196272508339278e-02 7.623696826036864896e-03 1.209600000000000000e+05
1.140000000000000000e+02 5.269324982258005025e-02 7.484678052182168126e-03 1.208320000000000000e+05
1.160000000000000000e+02 4.646164328789336578e-02 6.599525422252373874e-03 1.207040000000000000e+05
1.180000000000000000e+02 4.202728436307230642e-02 5.969658237520794782e-03 1.205760000000000000e+05
1.200000000000000000e+02 3.333734254521531631e-02 4.735317652761818728e-03 1.204480000000000000e+05
1.220000000000000000e+02 2.732095697336548584e-02 3.880735534659219416e-03 1.203200000000000000e+05
1.240000000000000000e+02 2.228533062277795324e-02 3.165462854531568733e-03 1.201920000000000000e+05
1.260000000000000000e+02 1.990044316861086862e-02 2.826707608931213530e-03 1.200640000000000000e+05
1.280000000000000000e+02 1.113458841134136110e-02 1.581584164633101667e-03 1.199360000000000000e+05
1.300000000000000000e+02 3.178799224855166552e-03 4.515244148098018729e-04 1.198080000000000000e+05
1.320000000000000000e+02 -5.803906190993126865e-03 -8.244010272836778093e-04 1.196800000000000000e+05
1.340000000000000000e+02 -1.552943547460375155e-02 -2.205838987933098072e-03 1.195520000000000000e+05
1.360000000000000000e+02 -2.378178201451607368e-02 -3.378022469389488705e-03 1.194240000000000000e+05
1.380000000000000000e+02 -3.261858828488943540e-02 -4.633224040102000736e-03 1.192960000000000000e+05
1.400000000000000000e+02 -3.963907378259800413e-02 -5.630430966933937069e-03 1.191680000000000000e+05
1.420000000000000000e+02 -4.328280664841011038e-02 -6.147995692977310800e-03 1.190400000000000000e+05
1.440000000000000000e+02 -4.457493377124504413e-02 -6.331532589059352470e-03 1.189120000000000000e+05
1.460000000000000000e+02 -4.412183407827477422e-02 -6.267173200734591290e-03 1.187840000000000000e+05
1.480000000000000000e+02 -4.145856865997847585e-02 -5.888876468409759250e-03 1.186560000000000000e+05
1.500000000000000000e+02 -4.308884186422948931e-02 -6.120444460742800741e-03 1.185280000000000000e+05
1.520000000000000000e+02 -3.972594222050582907e-02 -5.642769972268115580e-03 1.184000000000000000e+05
1.540000000000000000e+02 -3.736462545584734452e-02 -5.307362765041438550e-03 1.182720000000000000e+05
1.560000000000000000e+02 -3.972519966336959113e-02 -5.642664497636757683e-03 1.181440000000000000e+05
1.580000000000000000e+02 -3.858195764279339496e-02 -5.480275605538622447e-03 1.180160000000000000e+05
1.600000000000000000e+02 -4.046194881000868965e-02 -5.747314147950233557e-03 1.178880000000000000e+05
1.620000000000000000e+02 -4.323095215144425602e-02 -6.140630153431845574e-03 1.177600000000000000e+05
1.640000000000000000e+02 -5.064318781807497505e-02 -7.193482232178739950e-03 1.176320000000000000e+05
1.660000000000000000e+02 -5.722803074503890475e-02 -8.128809423013610980e-03 1.175040000000000000e+05
1.680000000000000000e+02 -5.950968193539793449e-02 -8.452900737265737346e-03 1.173760000000000000e+05
1.700000000000000000e+02 -5.984957880616641884e-02 -8.501180519917444708e-03 1.172480000000000000e+05
1.720000000000000000e+02 -5.785884159070098232e-02 -8.218411338012260661e-03 1.171200000000000000e+05
1.740000000000000000e+02 -5.604789270957660774e-02 -7.961179730741623981e-03 1.169920000000000000e+05
1.760000000000000000e+02 -5.457894811847137373e-02 -7.752527249106193515e-03 1.168640000000000000e+05
1.780000000000000000e+02 -4.888397819598840066e-02 -6.943599795776483723e-03 1.167360000000000000e+05
1.800000000000000000e+02 -4.608239522607517763e-02 -6.545656100201054442e-03 1.166080000000000000e+05
1.820000000000000000e+02 -4.589707615283783460e-02 -6.519332925889723476e-03 1.164800000000000000e+05
1.840000000000000000e+02 -4.171975258570083389e-02 -5.925975671875460642e-03 1.163520000000000000e+05
1.860000000000000000e+02 -4.393544319517733721e-02 -6.240697783929906144e-03 1.162240000000000000e+05
1.880000000000000000e+02 -4.024610914473753659e-02 -5.716655754116397974e-03 1.160960000000000000e+05
1.900000000000000000e+02 -3.802873621521722647e-02 -5.401694681209262029e-03 1.159680000000000000e+05
1.920000000000000000e+02 -3.623496534435343558e-02 -5.146903080520312188e-03 1.158400000000000000e+05
1.940000000000000000e+02 -3.346259895126629108e-02 -4.753109378958657143e-03 1.157120000000000000e+05
1.960000000000000000e+02 -3.066487366575145965e-02 -4.355713638308121409e-03 1.155840000000000000e+05
1.980000000000000000e+02 -2.653744679926391126e-02 -3.769443833663269419e-03 1.154560000000000000e+05
2.000000000000000000e+02 -2.752663095722308190e-02 -3.909949970247592575e-03 1.153280000000000000e+05
2.020000000000000000e+02 -2.943345748382757143e-02 -4.180800272725606996e-03 1.152000000000000000e+05
2.040000000000000000e+02 -2.790393946791729432e-02 -3.963543793714604385e-03 1.150720000000000000e+05
2.060000000000000000e+02 -2.541410405482499163e-02 -3.609881483406080470e-03 1.149440000000000000e+05
2.080000000000000000e+02 -2.481662101133100956e-02 -3.525013530921698116e-03 1.148160000000000000e+05
2.100000000000000000e+02 -2.568737153657138159e-02 -3.648697064716570002e-03 1.146880000000000000e+05
2.120000000000000000e+02 -2.321582297776800252e-02 -3.297632263906902401e-03 1.145600000000000000e+05
2.140000000000000000e+02 -1.982059363051428408e-02 -2.815365585289083053e-03 1.144320000000000000e+05
2.160000000000000000e+02 -1.764174967429557941e-02 -2.505877261962104457e-03 1.143040000000000000e+05
2.180000000000000000e+02 -1.431036372393729161e-02 -2.032679055551425348e-03 1.141760000000000000e+05
2.200000000000000000e+02 -1.254725070928442744e-02 -1.782242171724340764e-03 1.140480000000000000e+05
2.220000000000000000e+02 -9.378219085917785178e-03 -1.332105170914050585e-03 1.139200000000000000e+05
2.240000000000000000e+02 -1.162583018477198783e-02 -1.651361347332804723e-03 1.137920000000000000e+05
2.260000000000000000e+02 -9.842606133267000137e-03 -1.398067842655031489e-03 1.136640000000000000e+05
2.280000000000000000e+02 -9.937621036346466416e-03 -1.411563991822212911e-03 1.135360000000000000e+05
2.300000000000000000e+02 -1.088596145788013440e-02 -1.546268584212120902e-03 1.134080000000000000e+05
2.320000000000000000e+02 -1.065979719171224194e-02 -1.514143658820836123e-03 1.132800000000000000e+05
2.340000000000000000e+02 -1.341624127193575405e-02 -1.905675716129542289e-03 1.131520000000000000e+05
2.360000000000000000e+02 -1.603768124412287277e-02 -2.278031459815978502e-03 1.130240000000000000e+05
2.380000000000000000e+02 -1.764601350040062577e-02 -2.506482906248122533e-03 1.128960000000000000e+05
2.400000000000000000e+02 -1.498894100724371473e-02 -2.129065832153246782e-03 1.127680000000000000e+05
2.420000000000000000e+02 -9.545556251470995249e-03 -1.355874151087935750e-03 1.126400000000000000e+05
2.440000000000000000e+02 -6.404668754305921190e-03 -9.097348107823210973e-04 1.125120000000000000e+05
2.460000000000000000e+02 -3.736307258525284423e-03 -5.307142191505062829e-04 1.123840000000000000e+05
2.480000000000000000e+02 -3.159261659211308384e-03 -4.487492512118074011e-04 1.122560000000000000e+05
2.500000000000000000e+02 -2.655581043420241968e-03 -3.772052249273339514e-04 1.121280000000000000e+05
2.520000000000000000e+02 2.492631479708001547e-03 3.540594704476579817e-04 1.120000000000000000e+05
2.540000000000000000e+02 3.369226820015676360e-03 4.785732160666364117e-04 1.118720000000000000e+05
2.560000000000000000e+02 6.920058750123590612e-03 9.829420660379601434e-04 1.117440000000000000e+05
2.580000000000000000e+02 9.604125882528614239e-03 1.364193524699876519e-03 1.116160000000000000e+05
2.600000000000000000e+02 1.005299032238686843e-02 1.427951327316417029e-03 1.114880000000000000e+05
2.620000000000000000e+02 1.157620238594004279e-02 1.644312093435080623e-03 1.113600000000000000e+05
2.640000000000000000e+02 1.242646867833008609e-02 1.765085996707126993e-03 1.112320000000000000e+05
2.660000000000000000e+02 1.122504717751052726e-02 1.594433148972718411e-03 1.111040000000000000e+05
2.680000000000000000e+02 1.443212773807500508e-02 2.049974713861184988e-03 1.109760000000000000e+05
2.700000000000000000e+02 1.501354571535031511e-02 2.132560745057003430e-03 1.108480000000000000e+05
2.720000000000000000e+02 1.185852531976632970e-02 1.684413933301707892e-03 1.107200000000000000e+05
2.740000000000000000e+02 1.405400794951579962e-02 1.996265654502464484e-03 1.105920000000000000e+05
2.760000000000000000e+02 1.277299791736717822e-02 1.814307857165406825e-03 1.104640000000000000e+05
2.780000000000000000e+02 9.083279475883143314e-03 1.290211227508049384e-03 1.103360000000000000e+05
2.800000000000000000e+02 1.174231794620363492e-02 1.667907553806516428e-03 1.102080000000000000e+05
2.820000000000000000e+02 1.025505439823361058e-02 1.456653002743854650e-03 1.100800000000000000e+05
2.840000000000000000e+02 1.227837253543070592e-02 1.744050058439815297e-03 1.099520000000000000e+05
2.860000000000000000e+02 1.153619024943011717e-02 1.638628671726130928e-03 1.098240000000000000e+05
2.880000000000000000e+02 1.322562174313504646e-02 1.878599652149131249e-03 1.096960000000000000e+05
2.900000000000000000e+02 1.537120040126297403e-02 2.183362891193821754e-03 1.095680000000000000e+05
2.920000000000000000e+02 1.583334045101215601e-02 2.249006393901256673e-03 1.094400000000000000e+05
2.940000000000000000e+02 2.304526874794778427e-02 3.273406324058052933e-03 1.093120000000000000e+05
2.960000000000000000e+02 2.709012449459187108e-02 3.847947524934540713e-03 1.091840000000000000e+05
2.980000000000000000e+02 2.824185278597306920e-02 4.011541827688746079e-03 1.090560000000000000e+05
3.000000000000000000e+02 2.897600382830737772e-02 4.115822436913793222e-03 1.089280000000000000e+05
3.020000000000000000e+02 2.884477821162444167e-02 4.097182829442667755e-03 1.088000000000000000e+05
3.040000000000000000e+02 3.178127113760757100e-02 4.514289465064823779e-03 1.086720000000000000e+05
3.060000000000000000e+02 3.365807265532224507e-02 4.780874941861923584e-03 1.085440000000000000e+05
3.080000000000000000e+02 3.536823407311290302e-02 5.023790451391597911e-03 1.084160000000000000e+05
3.100000000000000000e+02 3.493387675496320566e-02 4.962093275815863958e-03 1.082880000000000000e+05
3.120000000000000000e+02 3.520631392613869648e-02 5.000790917782558902e-03 1.081600000000000000e+05
3.140000000000000000e+02 3.882536460524136507e-02 5.514849725671975254e-03 1.080320000000000000e+05
3.160000000000000000e+02 3.643230379062024904e-02 5.174933515966941532e-03 1.079040000000000000e+05
3.180000000000000000e+02 4.015846490404634955e-02 5.704206551857850076e-03 1.077760000000000000e+05
3.200000000000000000e+02 3.869512306221194187e-02 5.496349898428886174e-03 1.076480000000000000e+05
3.220000000000000000e+02 3.878629076748200261e-02 5.509299582211916319e-03 1.075200000000000000e+05
3.240000000000000000e+02 4.208481491578774936e-02 5.977830017904221457e-03 1.073920000000000000e+05
3.260000000000000000e+02 3.940877729122686107e-02 5.597719090170520488e-03 1.072640000000000000e+05
3.280000000000000000e+02 3.676328175338277465e-02 5.221946435116655259e-03 1.071360000000000000e+05
3.300000000000000000e+02 3.282375780825009387e-02 4.662366820887864013e-03 1.070080000000000000e+05
3.320000000000000000e+02 3.102091368250957382e-02 4.406286432889982251e-03 1.068800000000000000e+05
3.340000000000000000e+02 2.863695765748581687e-02 4.067663489762708695e-03 1.067520000000000000e+05
3.360000000000000000e+02 2.745593157325510250e-02 3.899907656872167103e-03 1.066240000000000000e+05
3.380000000000000000e+02 2.613310744502451294e-02 3.712010483082332345e-03 1.064960000000000000e+05
3.400000000000000000e+02 2.704046709405112311e-02 3.840894066337715348e-03 1.063680000000000000e+05
3.420000000000000000e+02 2.493039260539895233e-02 3.541173926341401913e-03 1.062400000000000000e+05
3.440000000000000000e+02 3.033668813775047476e-02 4.309097363420095680e-03 1.061120000000000000e+05
3.460000000000000000e+02 2.619404196440544563e-02 3.720665771214424523e-03 1.059840000000000000e+05
3.480000000000000000e+02 2.806836249649843559e-02 3.986898842747227042e-03 1.058560000000000000e+05
3.500000000000000000e+02 2.864898683073437841e-02 4.069372142945090580e-03 1.057280000000000000e+05
3.520000000000000000e+02 2.825921189591724600e-02 4.014007558112321107e-03 1.056000000000000000e+05
3.540000000000000000e+02 2.644434044254233979e-02 3.756218779087607765e-03 1.054720000000000000e+05
3.560000000000000000e+02 2.232012358851940062e-02 3.170404932462464378e-03 1.053440000000000000e+05
3.580000000000000000e+02 1.658920575635990796e-02 2.356371350141211064e-03 1.052160000000000000e+05
3.600000000000000000e+02 6.366688011021380544e-03 9.043399331343391018e-04 1.050880000000000000e+05
3.620000000000000000e+02 1.288184317831132504e-04 1.829768504182163679e-05 1.049600000000000000e+05
3.640000000000000000e+02 -6.925380082307207134e-03 -9.836979210732291461e-04 1.048320000000000000e+05
3.660000000000000000e+02 -1.198815706586732477e-02 -1.702827143497986136e-03 1.047040000000000000e+05
3.680000000000000000e+02 -1.580103699418484650e-02 -2.244417931903960103e-03 1.045760000000000000e+05
3.700000000000000000e+02 -2.055652364369521187e-02 -2.919898883883186025e-03 1.044480000000000000e+05
3.720000000000000000e+02 -2.152428814071298199e-02 -3.057362519451286339e-03 1.043200000000000000e+05
3.740000000000000000e+02 -2.256409526196740886e-02 -3.205059265527113437e-03 1.041920000000000000e+05
3.760000000000000000e+02 -2.897779983041129034e-02 -4.116077545444280124e-03 1.040640000000000000e+05
3.780000000000000000e+02 -3.568190715202607111e-02 -5.068345342524840230e-03 1.039360000000000000e+05
3.800000000000000000e+02 -3.973191322435451478e-02 -5.643618108255291435e-03 1.038080000000000000e+05
3.820000000000000000e+02 -3.613288908635851199e-02 -5.132403919234266622e-03 1.036800000000000000e+05
3.840000000000000000e+02 -3.224293488873511415e-02 -4.579865313151378764e-03 1.035520000000000000e+05
3.860000000000000000e+02 -2.373626955661498408e-02 -3.371557768580559292e-03 1.034240000000000000e+05
3.880000000000000000e+02 -1.734428938172653811e-02 -2.463625274645255860e-03 1.032960000000000000e+05
3.900000000000000000e+02 -1.684860418412400737e-02 -2.393216937110958804e-03 1.031680000000000000e+05
3.920000000000000000e+02 -1.187874750189161187e-02 -1.687286341498772050e-03 1.030400000000000000e+05
3.940000000000000000e+02 -1.205480857986613620e-02 -1.712294487524997424e-03 1.029120000000000000e+05
